v_bk (V),v_scope (V),% error
0.104,0.114,9.615384615
0.203,0.214,5.418719212
0.303,0.313,3.300330033
0.403,0.412,2.23325062
0.503,0.511,1.590457256
0.602,0.611,1.495016611
0.702,0.71,1.13960114
0.802,0.809,0.872817955
0.902,0.909,0.776053215
1.001,1.008,0.699300699
1.201,1.206,0.416319734
1.401,1.404,0.214132762
1.6,1.603,0.1875
1.8,1.802,0.111111111
2,2,0
2.501,2.499,0.079968013
3,2.995,0.166666667
3.498,3.49,0.228702115
3.997,3.987,0.250187641
